time	pressure	rate
0.2	351.571	559.975
0.201	350.970	559.975
0.202	350.567	559.975
0.203	350.136	559.975
0.204	349.777	559.975
0.205	349.471	559.975
0.206	349.240	559.975
0.207	348.997	559.975
0.208	348.722	559.975
0.209	348.542	559.975
0.210098	348.387	559.975
0.21133	348.185	559.975
0.212713	347.946	559.975
0.214264	347.765	559.975
0.216005	347.636	559.975
0.217957	347.391	559.975
0.220148	347.281	559.975
0.222607	347.100	559.975
0.225365	346.960	559.975
0.22846	346.820	559.975
0.231933	346.658	559.975
0.23583	346.559	559.975
0.240202	346.414	559.975
0.245107	346.303	559.975
0.250611	346.185	559.975
0.256786	346.117	559.975
0.263715	346.015	559.975
0.27149	345.979	559.975
0.280213	345.901	559.975
0.29	345.789	559.975
0.3	345.718	559.975
0.31	345.619	559.975
0.32	345.600	559.975
0.33	345.503	559.975
0.34	345.492	559.975
0.35	345.429	559.975
0.36	345.426	559.975
0.37	345.352	559.975
0.38	345.365	559.975
0.39	345.299	559.975
0.4	345.277	559.975
0.41	345.264	559.975
0.42	345.193	559.975
0.43	345.213	559.975
0.44	345.124	559.975
0.45	345.115	559.975
0.46	345.116	559.975
0.47	345.094	559.975
0.48	345.062	559.975
0.49	345.069	559.975
0.5	345.026	559.975
0.51	345.014	559.975
0.52	345.018	559.975
0.53	344.946	559.975
0.54	344.962	559.975
0.55	344.954	559.975
0.56	344.878	559.975
0.57	344.935	559.975
0.58	344.870	559.975
0.59	344.906	559.975
0.6	344.871	559.975
0.61	344.871	559.975
0.62	344.807	559.975
0.63	344.815	559.975
0.64	344.822	559.975
0.65	344.798	559.975
0.66	344.747	559.975
0.67	344.776	559.975
0.68	344.728	559.975
0.69	344.766	559.975
0.7	344.763	559.975
0.71	344.740	559.975
0.72	344.742	559.975
0.73	344.729	559.975
0.74	344.648	559.975
0.75	344.690	559.975
0.76	344.683	559.975
0.77	344.671	559.975
0.78	344.645	559.975
0.79	344.635	559.975
0.8	344.594	559.975
0.81	344.615	559.975
0.82	344.577	559.975
0.83	344.579	559.975
0.84	344.555	559.975
0.85	344.561	559.975
0.86	344.569	559.975
0.87	344.531	559.975
0.88	344.545	559.975
0.89	344.579	559.975
0.9	344.496	559.975
0.91	344.560	559.975
0.92	344.488	559.975
0.93	344.529	559.975
0.94	344.474	559.975
0.95	344.474	559.975
0.96	344.475	559.975
0.97	344.445	559.975
0.98	344.474	559.975
0.99	344.484	559.975
1	344.488	559.975
1.01000	344.415	559.975
1.02000	344.424	559.975
1.03000	344.440	559.975
1.04000	344.427	559.975
1.05000	344.419	559.975
1.06000	344.409	559.975
1.07000	344.443	559.975
1.08000	344.408	559.975
1.09000	344.416	559.975
1.10000	344.392	559.975
1.11000	344.404	559.975
1.12000	344.368	559.975
1.13000	344.336	559.975
1.14000	344.364	559.975
1.15000	344.332	559.975
1.16000	344.381	559.975
1.17000	344.336	559.975
1.18000	344.339	559.975
1.19000	344.349	559.975
1.20000	344.332	559.975
1.21000	344.359	559.975
1.22000	344.305	559.975
1.23000	344.302	559.975
1.24000	344.346	559.975
1.25000	344.290	559.975
1.26000	344.262	559.975
1.27000	344.284	559.975
1.28000	344.293	559.975
1.29000	344.249	559.975
1.30000	344.298	559.975
1.31000	344.259	559.975
1.32000	344.264	559.975
1.33000	344.301	559.975
1.34000	344.290	559.975
1.35000	344.266	559.975
1.36000	344.242	559.975
1.37000	344.245	559.975
1.38000	344.270	559.975
1.39000	344.258	559.975
1.40000	344.225	559.975
1.41000	344.218	559.975
1.42000	344.194	559.975
1.43000	344.201	559.975
1.44000	344.238	559.975
1.45000	344.189	559.975
1.46000	344.220	559.975
1.47000	344.184	559.975
1.48000	344.198	559.975
1.49000	344.218	559.975
1.50000	344.224	559.975
1.51000	344.211	559.975
1.52000	344.189	559.975
1.53000	344.190	559.975
1.54000	344.164	559.975
1.55000	344.160	559.975
1.56000	344.161	559.975
1.57000	344.183	559.975
1.58000	344.156	559.975
1.59000	344.124	559.975
1.60000	344.161	559.975
1.61000	344.170	559.975
1.62000	344.128	559.975
1.63000	344.095	559.975
1.64000	344.114	559.975
1.65000	344.139	559.975
1.66000	344.150	559.975
1.67000	344.109	559.975
1.68000	344.101	559.975
1.69000	344.142	559.975
1.70000	344.109	559.975
1.71000	344.111	559.975
1.72000	344.067	559.975
1.73000	344.056	559.975
1.74000	344.060	559.975
1.75000	344.106	559.975
1.76000	344.083	559.975
1.77000	344.102	559.975
1.78000	344.091	559.975
1.79000	344.103	559.975
1.80000	344.071	559.975
1.81000	344.065	559.975
1.82000	344.069	559.975
1.83000	344.077	559.975
1.84000	344.053	559.975
1.85000	344.088	559.975
1.86000	344.023	559.975
1.87000	344.037	559.975
1.88000	344.068	559.975
1.89000	344.042	559.975
1.90000	344.017	559.975
1.91000	344.019	559.975
1.92000	344.016	559.975
1.93000	344.007	559.975
1.94000	344.016	559.975
1.95000	344.005	559.975
1.96000	344.021	559.975
1.97000	343.999	559.975
1.98000	343.980	559.975
1.99000	343.993	559.975
2.00000	344.038	559.975
2.01000	344.033	559.975
2.02000	344.024	559.975
2.03000	343.981	559.975
2.04000	344.025	559.975
2.05000	344.012	559.975
2.06000	344.017	559.975
2.07000	344.000	559.975
2.08000	343.974	559.975
2.09000	343.982	559.975
2.10000	343.976	559.975
2.11000	343.979	559.975
2.12000	343.979	559.975
2.13000	343.994	559.975
2.14000	343.971	559.975
2.15000	343.948	559.975
2.16000	343.972	559.975
2.17000	343.963	559.975
2.18000	343.962	559.975
2.19000	343.908	559.975
2.20000	343.950	559.975
2.21000	343.955	559.975
2.22000	343.951	559.975
2.23000	343.946	559.975
2.24000	343.900	559.975
2.25000	343.934	559.975
2.26000	343.903	559.975
2.27000	343.912	559.975
2.28000	343.952	559.975
2.29000	343.883	559.975
2.30000	343.913	559.975
2.31000	343.894	559.975
2.32000	343.949	559.975
2.33000	343.896	559.975
2.34000	343.912	559.975
2.35000	343.920	559.975
2.36000	343.930	559.975
2.37000	343.862	559.975
2.38000	343.930	559.975
2.39000	343.878	559.975
2.40000	343.921	559.975
2.41000	343.866	559.975
2.42000	343.913	559.975
2.43000	343.850	559.975
2.44000	343.874	559.975
2.45000	343.890	559.975
2.46000	343.864	559.975
2.47000	343.855	559.975
2.48000	343.849	559.975
2.49000	343.854	559.975
2.50000	343.857	559.975
2.51000	343.900	559.975
2.52000	343.825	559.975
2.53000	343.861	559.975
2.54000	343.821	559.975
2.55000	343.833	559.975
2.56000	343.872	559.975
2.57000	343.851	559.975
2.58000	343.842	559.975
2.59000	343.808	559.975
2.60000	343.850	559.975
2.61000	343.880	559.975
2.62000	343.843	559.975
2.63000	343.815	559.975
2.64000	343.828	559.975
2.65000	343.831	559.975
2.66000	343.867	559.975
2.67000	343.806	559.975
2.68000	343.829	559.975
2.69000	343.785	559.975
2.70000	343.818	559.975
2.71000	343.836	559.975
2.72000	343.790	559.975
2.73000	343.838	559.975
2.74000	343.812	559.975
2.75000	343.820	559.975
2.76000	343.769	559.975
2.77000	343.806	559.975
2.78000	343.838	559.975
2.79000	343.771	559.975
2.80000	343.766	559.975
2.81000	343.765	559.975
2.82000	343.780	559.975
2.83000	343.802	559.975
2.84000	343.768	559.975
2.85000	343.782	559.975
2.86000	343.806	559.975
2.87000	343.789	559.975
2.88000	343.764	559.975
2.89000	343.784	559.975
2.90000	343.764	559.975
2.91000	343.750	559.975
2.92000	343.792	559.975
2.93000	343.762	559.975
2.94000	343.736	559.975
2.95000	343.782	559.975
2.96000	343.760	559.975
2.97000	343.745	559.975
2.98000	343.778	559.975
2.99000	343.742	559.975
3.00000	343.743	559.975
3.01000	343.726	559.975
3.02000	343.777	559.975
3.03000	343.759	559.975
3.04000	343.783	559.975
3.05000	343.784	559.975
3.06000	343.783	559.975
3.07000	343.738	559.975
3.08000	343.727	559.975
3.09000	343.715	559.975
3.10000	343.735	559.975
3.11000	343.776	559.975
3.12000	343.735	559.975
3.13000	343.744	559.975
3.14000	343.755	559.975
3.15000	343.708	559.975
3.16000	343.746	559.975
3.17000	343.744	559.975
3.18000	343.758	559.975
3.19000	343.709	559.975
3.20000	343.745	559.975
3.21000	343.722	559.975
3.22000	343.713	559.975
3.23000	343.697	559.975
3.24000	343.751	559.975
3.25000	343.708	559.975
3.26000	343.713	559.975
3.27000	343.684	559.975
3.28000	343.687	559.975
3.29000	343.668	559.975
3.30000	343.726	559.975
3.31000	343.733	559.975
3.32000	343.666	559.975
3.33000	343.711	559.975
3.34000	343.657	559.975
3.35000	343.711	559.975
3.36000	343.712	559.975
3.37000	343.717	559.975
3.38000	343.724	559.975
3.39000	343.675	559.975
3.40000	343.706	559.975
3.41000	343.677	559.975
3.42000	343.714	559.975
3.43000	343.650	559.975
3.44000	343.703	559.975
3.45000	343.644	559.975
3.46000	343.680	559.975
3.47000	343.696	559.975
3.48000	343.701	559.975
3.49000	343.696	559.975
3.50000	343.681	559.975
3.51000	343.671	559.975
3.52000	343.674	559.975
3.53000	343.697	559.975
3.54000	343.685	559.975
3.55000	343.672	559.975
3.56000	343.669	559.975
3.57000	343.657	559.975
3.58000	343.646	559.975
3.59000	343.677	559.975
3.60000	343.643	559.975
3.61000	343.673	559.975
3.62000	343.667	559.975
3.63000	343.608	559.975
3.64000	343.646	559.975
3.65000	343.613	559.975
3.66000	343.618	559.975
3.67000	343.622	559.975
3.68000	343.644	559.975
3.69000	343.608	559.975
3.70000	343.650	559.975
3.71000	343.605	559.975
3.72000	343.638	559.975
3.73000	343.594	559.975
3.74000	343.604	559.975
3.75000	343.600	559.975
3.76000	343.632	559.975
3.77000	343.597	559.975
3.78000	343.649	559.975
3.79000	343.586	559.975
3.80000	343.627	559.975
3.81000	343.591	559.975
3.82000	343.654	559.975
3.83000	343.615	559.975
3.84000	343.585	559.975
3.85000	343.624	559.975
3.86000	343.630	559.975
3.87000	343.601	559.975
3.88000	343.626	559.975
3.89000	343.632	559.975
3.90000	343.643	559.975
3.91000	343.615	559.975
3.92000	343.593	559.975
3.93000	343.635	559.975
3.94000	343.590	559.975
3.95000	343.579	559.975
3.96000	343.625	559.975
3.97000	343.624	559.975
3.98000	343.576	559.975
3.99000	343.605	559.975
4.00000	343.580	559.975
4.01000	343.555	559.975
4.02000	343.606	559.975
4.03000	343.566	559.975
4.04000	343.587	559.975
4.05000	343.609	559.975
4.06000	343.547	559.975
4.07000	343.612	559.975
4.08000	343.573	559.975
4.09000	343.543	559.975
4.10000	343.545	559.975
4.11000	343.581	559.975
4.12000	343.571	559.975
4.13000	343.543	559.975
4.14000	343.588	559.975
4.15000	343.585	559.975
4.16000	343.604	559.975
4.17000	343.541	559.975
4.18000	343.532	559.975
4.19000	343.553	559.975
4.20000	343.591	559.975
4.21000	343.579	559.975
4.22000	343.562	559.975
4.23000	343.539	559.975
4.24000	343.517	559.975
4.25000	343.553	559.975
4.26000	343.513	559.975
4.27000	343.519	559.975
4.28000	343.515	559.975
4.29000	343.542	559.975
4.30000	343.517	559.975
4.31000	343.553	559.975
4.32000	343.532	559.975
4.33000	343.537	559.975
4.34000	343.511	559.975
4.35000	343.577	559.975
4.36000	343.509	559.975
4.37000	343.549	559.975
4.38000	343.520	559.975
4.39000	343.537	559.975
4.40000	343.513	559.975
4.41000	343.540	559.975
4.42000	343.525	559.975
4.43000	343.546	559.975
4.44000	343.554	559.975
4.45000	343.511	559.975
4.46000	343.546	559.975
4.47000	343.486	559.975
4.48000	343.550	559.975
4.49000	343.528	559.975
4.50000	343.484	559.975
4.51000	343.500	559.975
4.52000	343.506	559.975
4.53000	343.526	559.975
4.54000	343.495	559.975
4.55000	343.509	559.975
4.56000	343.487	559.975
4.57000	343.549	559.975
4.58000	343.492	559.975
4.59000	343.527	559.975
4.60000	343.523	559.975
4.61000	343.485	559.975
4.62000	343.502	559.975
4.63000	343.465	559.975
4.64000	343.525	559.975
4.65000	343.496	559.975
4.66000	343.477	559.975
4.67000	343.483	559.975
4.68000	343.493	559.975
4.69000	343.486	559.975
4.70000	343.490	559.975
4.71000	343.489	559.975
4.72000	343.530	559.975
4.73000	343.451	559.975
4.74000	343.459	559.975
4.75000	343.490	559.975
4.76000	343.486	559.975
4.77000	343.455	559.975
4.78000	343.505	559.975
4.79000	343.488	559.975
4.80000	343.495	559.975
4.81000	343.470	559.975
4.82000	343.455	559.975
4.83000	343.476	559.975
4.84000	343.449	559.975
4.85000	343.505	559.975
4.86000	343.448	559.975
4.87000	343.451	559.975
4.88000	343.508	559.975
4.89000	343.467	559.975
4.90000	343.451	559.975
4.91000	343.441	559.975
4.92000	343.507	559.975
4.93000	343.496	559.975
4.94000	343.503	559.975
4.95000	343.440	559.975
4.96000	343.437	559.975
4.97000	343.497	559.975
4.98000	343.489	559.975
4.99000	343.427	559.975
5.00000	343.441	559.975
5.01000	343.491	559.975
5.02000	343.419	559.975
5.03000	343.442	559.975
5.04000	343.474	559.975
5.05000	343.422	559.975
5.06000	343.489	559.975
5.07000	343.485	559.975
5.08000	343.415	559.975
5.09000	343.418	559.975
5.10000	343.435	559.975
5.11000	343.462	559.975
5.12000	343.442	559.975
5.13000	343.452	559.975
5.14000	343.446	559.975
5.15000	343.416	559.975
5.16000	343.467	559.975
5.17000	343.469	559.975
5.18000	343.416	559.975
5.19000	343.471	559.975
5.20000	343.437	559.975
5.21000	343.433	559.975
5.22000	343.431	559.975
5.23000	343.405	559.975
5.24000	343.458	559.975
5.25000	343.458	559.975
5.26000	343.406	559.975
5.27000	343.441	559.975
5.28000	343.399	559.975
5.29000	343.407	559.975
5.30000	343.402	559.975
5.31000	343.459	559.975
5.32000	343.388	559.975
5.33000	343.398	559.975
5.34000	343.419	559.975
5.35000	343.396	559.975
5.36000	343.450	559.975
5.37000	343.400	559.975
5.38000	343.390	559.975
5.39000	343.424	559.975
5.40000	343.436	559.975
5.41000	343.446	559.975
5.42000	343.375	559.975
5.43000	343.382	559.975
5.44000	343.409	559.975
5.45000	343.443	559.975
5.46000	343.410	559.975
5.47000	343.401	559.975
5.48000	343.420	559.975
5.49000	343.375	559.975
5.50000	343.390	559.975
5.51000	343.379	559.975
5.52000	343.384	559.975
5.53000	343.376	559.975
5.54000	343.421	559.975
5.55000	343.382	559.975
5.56000	343.422	559.975
5.57000	343.419	559.975
5.58000	343.408	559.975
5.59000	343.374	559.975
5.60000	343.393	559.975
5.61000	343.376	559.975
5.62000	343.427	559.975
5.63000	343.368	559.975
5.64000	343.421	559.975
5.65000	343.367	559.975
5.66000	343.358	559.975
5.67000	343.371	559.975
5.68000	343.414	559.975
5.69000	343.376	559.975
5.70000	343.371	559.975
5.71000	343.343	559.975
5.72000	343.380	559.975
5.73000	343.347	559.975
5.74000	343.361	559.975
5.75000	343.404	559.975
5.76000	343.344	559.975
5.77000	343.373	559.975
5.78000	343.411	559.975
5.79000	343.413	559.975
5.80000	343.382	559.975
5.81000	343.342	559.975
5.82000	343.352	559.975
5.83000	343.407	559.975
5.84000	343.392	559.975
5.85000	343.348	559.975
5.86000	343.367	559.975
5.87000	343.402	559.975
5.88000	343.333	559.975
5.89000	343.348	559.975
5.90000	343.380	559.975
5.91000	343.326	559.975
5.92000	343.334	559.975
5.93000	343.356	559.975
5.94000	343.326	559.975
5.95000	343.328	559.975
5.96000	343.359	559.975
5.97000	343.397	559.975
5.98000	343.332	559.975
5.99000	343.331	559.975
6.00000	343.334	559.975
6.01000	343.383	559.975
6.02000	343.350	559.975
6.03000	343.340	559.975
6.04000	343.371	559.975
6.05000	343.332	559.975
6.06000	343.340	559.975
6.07000	343.308	559.975
6.08000	343.369	559.975
6.09000	343.376	559.975
6.10000	343.310	559.975
6.11000	343.336	559.975
6.12000	343.320	559.975
6.13000	343.330	559.975
6.14000	343.357	559.975
6.15000	343.330	559.975
6.16000	343.354	559.975
6.17000	343.363	559.975
6.18000	343.323	559.975
6.19000	343.313	559.975
6.20000	343.342	559.975
6.21000	343.297	559.975
6.22000	343.344	559.975
6.23000	343.327	559.975
6.24000	343.312	559.975
6.25000	343.341	559.975
6.26000	343.292	559.975
6.27000	343.335	559.975
6.28000	343.315	559.975
6.29000	343.330	559.975
6.30000	343.354	559.975
6.31000	343.341	559.975
6.32000	343.351	559.975
6.33000	343.336	559.975
6.34000	343.361	559.975
6.35000	343.338	559.975
6.36000	343.343	559.975
6.37000	343.295	559.975
6.38000	343.330	559.975
6.39000	343.295	559.975
6.40000	343.299	559.975
6.41000	343.308	559.975
6.42000	343.316	559.975
6.43000	343.276	559.975
6.44000	343.330	559.975
6.45000	343.304	559.975
6.46000	343.291	559.975
6.47000	343.345	559.975
6.48000	343.340	559.975
6.49000	343.319	559.975
6.50000	343.300	559.975
6.51000	343.269	559.975
6.52000	343.329	559.975
6.53000	343.321	559.975
6.54000	343.317	559.975
6.55000	343.271	559.975
6.56000	343.266	559.975
6.57000	343.291	559.975
6.58000	343.313	559.975
6.59000	343.286	559.975
6.60000	343.293	559.975
6.61000	343.332	559.975
6.62000	343.266	559.975
6.63000	343.331	559.975
6.64000	343.300	559.975
6.65000	343.273	559.975
6.66000	343.309	559.975
6.67000	343.320	559.975
6.68000	343.284	559.975
6.69000	343.290	559.975
6.70000	343.263	559.975
6.71000	343.270	559.975
6.72000	343.281	559.975
6.73000	343.309	559.975
6.74000	343.272	559.975
6.75000	343.323	559.975
6.76000	343.325	559.975
6.77000	343.311	559.975
6.78000	343.276	559.975
6.79000	343.271	559.975
6.80000	343.268	559.975
6.81000	343.313	559.975
6.82000	343.259	559.975
6.83000	343.243	559.975
6.84000	343.309	559.975
6.85000	343.317	559.975
6.86000	343.307	559.975
6.87000	343.313	559.975
6.88000	343.311	559.975
6.89000	343.283	559.975
6.90000	343.249	559.975
6.91000	343.303	559.975
6.92000	343.271	559.975
6.93000	343.251	559.975
6.94000	343.306	559.975
6.95000	343.250	559.975
6.96000	343.266	559.975
6.97000	343.276	559.975
6.98000	343.291	559.975
6.99000	343.252	559.975
7.00000	343.234	559.975
7.01000	343.296	559.975
7.02000	343.303	559.975
7.03000	343.238	559.975
7.04000	343.234	559.975
7.05000	343.239	559.975
7.06000	343.295	559.975
7.07000	343.230	559.975
7.08000	343.268	559.975
7.09000	343.239	559.975
7.10000	343.263	559.975
7.11000	343.272	559.975
7.12000	343.232	559.975
7.13000	343.249	559.975
7.14000	343.272	559.975
7.15000	343.275	559.975
7.16000	343.268	559.975
7.17000	343.265	559.975
7.18000	343.232	559.975
7.19000	343.230	559.975
7.20000	343.250	559.975
7.21000	343.281	559.975
7.22000	343.231	559.975
7.23000	343.248	559.975
7.24000	343.278	559.975
7.25000	343.256	559.975
7.26000	343.221	559.975
7.27000	343.234	559.975
7.28000	343.269	559.975
7.29000	343.226	559.975
7.30000	343.278	559.975
7.31000	343.244	559.975
7.32000	343.207	559.975
7.33000	343.216	559.975
7.34000	343.208	559.975
7.35000	343.230	559.975
7.36000	343.250	559.975
7.37000	343.242	559.975
7.38000	343.213	559.975
7.39000	343.211	559.975
7.40000	343.254	559.975
7.41000	343.220	559.975
7.42000	343.197	559.975
7.43000	343.212	559.975
7.44000	343.256	559.975
7.45000	343.231	559.975
7.46000	343.208	559.975
7.47000	343.224	559.975
7.48000	343.246	559.975
7.49000	343.226	559.975
7.50000	343.248	559.975
7.51000	343.224	559.975
7.52000	343.223	559.975
7.53000	343.210	559.975
7.54000	343.184	559.975
7.55000	343.208	559.975
7.56000	343.236	559.975
7.57000	343.201	559.975
7.58000	343.234	559.975
7.59000	343.197	559.975
7.60000	343.259	559.975
7.61000	343.211	559.975
7.62000	343.193	559.975
7.63000	343.226	559.975
7.64000	343.188	559.975
7.65000	343.190	559.975
7.66000	343.206	559.975
7.67000	343.216	559.975
7.68000	343.193	559.975
7.69000	343.184	559.975
7.70000	343.206	559.975
7.71000	343.222	559.975
7.72000	343.193	559.975
7.73000	343.229	559.975
7.74000	343.175	559.975
7.75000	343.219	559.975
7.76000	343.218	559.975
7.77000	343.245	559.975
7.78000	343.205	559.975
7.79000	343.173	559.975
7.80000	343.174	559.975
7.81000	343.186	559.975
7.82000	343.179	559.975
7.83000	343.197	559.975
7.84000	343.221	559.975
7.85000	343.198	559.975
7.86000	343.226	559.975
7.87000	343.171	559.975
7.88000	343.200	559.975
7.89000	343.182	559.975
7.90000	343.236	559.975
7.91000	343.159	559.975
7.92000	343.200	559.975
7.93000	343.197	559.975
7.94000	343.230	559.975
7.95000	343.193	559.975
7.96000	343.214	559.975
7.97000	343.207	559.975
7.98000	343.199	559.975
7.99000	343.192	559.975
8.00000	343.180	559.975
8.01000	343.214	559.975
8.02000	343.169	559.975
8.03000	343.203	559.975
8.04000	343.205	559.975
8.05000	343.161	559.975
8.06000	343.209	559.975
8.07000	343.201	559.975
